# Gaussian folded, width=10 cm^-1
# [cm^-1] arbitrary
0.000      3.00014e+00
1.000      2.91834e+00
2.000      2.68601e+00
3.000      2.33974e+00
4.000      1.93023e+00
5.000      1.51095e+00
6.000      1.12807e+00
7.000      8.14543e-01
8.000      5.89032e-01
9.000      4.58814e-01
10.000      4.24392e-01
11.000      4.83681e-01
12.000      6.34274e-01
13.000      8.73318e-01
14.000      1.19545e+00
15.000      1.58987e+00
16.000      2.03778e+00
17.000      2.51135e+00
18.000      2.97491e+00
19.000      3.38859e+00
20.000      3.71386e+00
21.000      3.91968e+00
22.000      3.98783e+00
23.000      3.91581e+00
24.000      3.71647e+00
25.000      3.41471e+00
26.000      3.04223e+00
27.000      2.63233e+00
28.000      2.21601e+00
29.000      1.82011e+00
30.000      1.46739e+00
31.000      1.17744e+00
32.000      9.67789e-01
33.000      8.54153e-01
34.000      8.49708e-01
35.000      9.63282e-01
36.000      1.19681e+00
37.000      1.54271e+00
38.000      1.98206e+00
39.000      2.48453e+00
40.000      3.01076e+00
41.000      3.51702e+00
42.000      3.96114e+00
43.000      4.30824e+00
44.000      4.53471e+00
45.000      4.62971e+00
46.000      4.59434e+00
47.000      4.43975e+00
48.000      4.18537e+00
49.000      3.85785e+00
50.000      3.49057e+00
51.000      3.12244e+00
52.000      2.79505e+00
53.000      2.54765e+00
54.000      2.41103e+00
55.000      2.40215e+00
56.000      2.52172e+00
57.000      2.75632e+00
58.000      3.08476e+00
59.000      3.48676e+00
60.000      3.95058e+00
61.000      4.47587e+00
62.000      5.06954e+00
63.000      5.73505e+00
64.000      6.45910e+00
65.000      7.20163e+00
66.000      7.89508e+00
67.000      8.45575e+00
68.000      8.80509e+00
69.000      8.89402e+00
70.000      8.72125e+00
71.000      8.33856e+00
72.000      7.84044e+00
73.000      7.34183e+00
74.000      6.95162e+00
75.000      6.75039e+00
76.000      6.77855e+00
77.000      7.03632e+00
78.000      7.49282e+00
79.000      8.09868e+00
80.000      8.79666e+00
81.000      9.52713e+00
82.000      1.02287e+01
83.000      1.08372e+01
84.000      1.12877e+01
85.000      1.15210e+01
86.000      1.14968e+01
87.000      1.12062e+01
88.000      1.06818e+01
89.000      9.99776e+00
90.000      9.25984e+00
91.000      8.58579e+00
92.000      8.08186e+00
93.000      7.82091e+00
94.000      7.82796e+00
95.000      8.07659e+00
96.000      8.49718e+00
97.000      8.99474e+00
98.000      9.47205e+00
99.000      9.85248e+00
100.000      1.00970e+01
101.000      1.02118e+01
102.000      1.02443e+01
103.000      1.02698e+01
104.000      1.03707e+01
105.000      1.06139e+01
106.000      1.10314e+01
107.000      1.16089e+01
108.000      1.22848e+01
109.000      1.29626e+01
110.000      1.35315e+01
111.000      1.38924e+01
112.000      1.39814e+01
113.000      1.37834e+01
114.000      1.33345e+01
115.000      1.27113e+01
116.000      1.20127e+01
117.000      1.13397e+01
118.000      1.07798e+01
119.000      1.03978e+01
120.000      1.02350e+01
121.000      1.03130e+01
122.000      1.06373e+01
123.000      1.11995e+01
124.000      1.19748e+01
125.000      1.29179e+01
126.000      1.39597e+01
127.000      1.50096e+01
128.000      1.59638e+01
129.000      1.67210e+01
130.000      1.72002e+01
131.000      1.73564e+01
132.000      1.71896e+01
133.000      1.67431e+01
134.000      1.60930e+01
135.000      1.53299e+01
136.000      1.45390e+01
137.000      1.37820e+01
138.000      1.30870e+01
139.000      1.24475e+01
140.000      1.18321e+01
141.000      1.12010e+01
142.000      1.05258e+01
143.000      9.80470e+00
144.000      9.07097e+00
145.000      8.38881e+00
146.000      7.83931e+00
147.000      7.49913e+00
148.000      7.41797e+00
149.000      7.60172e+00
150.000      8.00655e+00
151.000      8.54685e+00
152.000      9.11545e+00
153.000      9.61058e+00
154.000      9.96165e+00
155.000      1.01457e+01
156.000      1.01899e+01
157.000      1.01593e+01
158.000      1.01346e+01
159.000      1.01883e+01
160.000      1.03646e+01
161.000      1.06705e+01
162.000      1.10779e+01
163.000      1.15337e+01
164.000      1.19745e+01
165.000      1.23389e+01
166.000      1.25766e+01
167.000      1.26526e+01
168.000      1.25504e+01
169.000      1.22747e+01
170.000      1.18535e+01
171.000      1.13387e+01
172.000      1.07997e+01
173.000      1.03110e+01
174.000      9.93399e+00
175.000      9.70065e+00
176.000      9.60390e+00
177.000      9.60063e+00
178.000      9.62613e+00
179.000      9.61532e+00
180.000      9.52253e+00
181.000      9.33280e+00
182.000      9.06102e+00
183.000      8.74072e+00
184.000      8.40811e+00
185.000      8.08894e+00
186.000      7.79326e+00
187.000      7.51935e+00
188.000      7.26320e+00
189.000      7.02776e+00
190.000      6.82625e+00
191.000      6.67803e+00
192.000      6.59913e+00
193.000      6.59277e+00
194.000      6.64503e+00
195.000      6.72809e+00
196.000      6.80968e+00
197.000      6.86472e+00
198.000      6.88451e+00
199.000      6.88028e+00
200.000      6.88041e+00
201.000      6.92258e+00
202.000      7.04334e+00
203.000      7.26760e+00
204.000      7.60053e+00
205.000      8.02378e+00
206.000      8.49739e+00
207.000      8.96744e+00
208.000      9.37792e+00
209.000      9.68347e+00
210.000      9.85933e+00
211.000      9.90535e+00
212.000      9.84353e+00
213.000      9.71073e+00
214.000      9.54994e+00
215.000      9.40306e+00
216.000      9.30622e+00
217.000      9.28723e+00
218.000      9.36323e+00
219.000      9.53787e+00
220.000      9.79873e+00
221.000      1.01170e+01
222.000      1.04516e+01
223.000      1.07577e+01
224.000      1.09978e+01
225.000      1.11522e+01
226.000      1.12240e+01
227.000      1.12378e+01
228.000      1.12321e+01
229.000      1.12471e+01
230.000      1.13126e+01
231.000      1.14383e+01
232.000      1.16101e+01
233.000      1.17919e+01
234.000      1.19339e+01
235.000      1.19842e+01
236.000      1.19021e+01
237.000      1.16682e+01
238.000      1.12897e+01
239.000      1.07984e+01
240.000      1.02440e+01
241.000      9.68340e+00
242.000      9.17120e+00
243.000      8.75304e+00
244.000      8.46320e+00
245.000      8.32544e+00
246.000      8.35518e+00
247.000      8.56018e+00
248.000      8.93824e+00
249.000      9.47202e+00
250.000      1.01231e+01
251.000      1.08289e+01
252.000      1.15054e+01
253.000      1.20569e+01
254.000      1.23923e+01
255.000      1.24412e+01
256.000      1.21676e+01
257.000      1.15758e+01
258.000      1.07076e+01
259.000      9.63309e+00
260.000      8.43731e+00
261.000      7.20776e+00
262.000      6.02363e+00
263.000      4.94830e+00
264.000      4.02503e+00
265.000      3.27550e+00
266.000      2.70127e+00
267.000      2.28793e+00
268.000      2.01130e+00
269.000      1.84459e+00
270.000      1.76445e+00
271.000      1.75467e+00
272.000      1.80658e+00
273.000      1.91665e+00
274.000      2.08237e+00
275.000      2.29774e+00
276.000      2.54974e+00
277.000      2.81647e+00
278.000      3.06771e+00
279.000      3.26807e+00
280.000      3.38258e+00
281.000      3.38363e+00
282.000      3.25752e+00
283.000      3.00854e+00
284.000      2.65891e+00
285.000      2.24436e+00
286.000      1.80670e+00
287.000      1.38547e+00
288.000      1.01124e+00
289.000      7.02057e-01
290.000      4.63368e-01
291.000      2.90629e-01
292.000      1.73167e-01
293.000      9.79892e-02
294.000      5.26469e-02
295.000      2.68502e-02
296.000      1.29961e-02
297.000      5.96864e-03
298.000      2.60049e-03
299.000      1.07465e-03
300.000      4.21149e-04
301.000      1.56488e-04
302.000      5.51226e-05
303.000      1.84040e-05
304.000      5.82316e-06
305.000      1.74585e-06
306.000      4.95905e-07
307.000      1.33436e-07
308.000      3.40081e-08
309.000      8.20872e-09
310.000      1.87632e-09
311.000      4.06103e-10
312.000      8.32196e-11
313.000      1.61451e-11
314.000      2.96517e-12
315.000      5.15494e-13
316.000      8.48276e-14
317.000      1.32120e-14
318.000      1.94757e-15
319.000      2.71702e-16
320.000      3.58719e-17
321.000      4.48186e-18
322.000      5.29899e-19
323.000      5.92852e-20
324.000      6.27633e-21
325.000      6.28728e-22
326.000      5.95947e-23
327.000      5.34483e-24
328.000      4.53558e-25
329.000      3.64167e-26
330.000      2.76649e-27
331.000      1.98845e-28
332.000      1.35224e-29
333.000      8.70042e-31
334.000      5.29630e-32
335.000      3.05033e-33
336.000      1.66212e-34
337.000      8.56864e-36
338.000      4.17924e-37
339.000      1.92848e-38
340.000      8.41910e-40
341.000      3.47732e-41
342.000      1.35879e-42
343.000      5.02327e-44
344.000      1.75690e-45
345.000      5.81344e-47
346.000      1.81988e-48
347.000      5.38985e-50
348.000      1.51019e-51
349.000      4.00324e-53
350.000      1.00395e-54
351.000      2.38195e-56
352.000      5.34657e-58
353.000      1.13537e-59
354.000      2.28098e-61
355.000      4.33534e-63
356.000      7.79553e-65
357.000      1.32613e-66
358.000      2.13426e-68
359.000      3.24959e-70
360.000      4.68087e-72
361.000      6.37888e-74
362.000      8.22395e-76
363.000      1.00308e-77
364.000      1.15747e-79
365.000      1.26357e-81
366.000      1.30499e-83
367.000      1.27508e-85
368.000      1.17864e-87
369.000      1.03073e-89
370.000      8.52760e-92
371.000      6.67462e-94
372.000      4.94247e-96
373.000      3.46242e-98
374.000     2.29473e-100
375.000     1.43881e-102
376.000     8.53478e-105
377.000     4.78959e-107
378.000     2.54286e-109
379.000     1.27722e-111
380.000     6.06911e-114
381.000     2.72836e-116
382.000     1.16037e-118
383.000     4.66885e-121
384.000     1.77722e-123
385.000     6.40013e-126
386.000     2.18049e-128
387.000     7.02810e-131
388.000     2.14308e-133
389.000     6.18240e-136
390.000     1.68731e-138
391.000     4.35660e-141
392.000     1.06419e-143
393.000     2.45928e-146
394.000     5.37669e-149
395.000     1.11209e-151
396.000     2.17612e-154
397.000     4.02848e-157
398.000     7.05536e-160
399.000     1.16900e-162
400.000     1.83243e-165
401.000     2.71742e-168
402.000     3.81245e-171
403.000     5.06022e-174
404.000     6.35408e-177
405.000     7.54837e-180
406.000     8.48343e-183
407.000     9.02001e-186
408.000     9.07320e-189
409.000     8.63439e-192
410.000     7.77356e-195
411.000     6.62104e-198
412.000     5.33519e-201
413.000     4.06716e-204
414.000     2.93326e-207
415.000     2.00137e-210
416.000     1.29188e-213
417.000     7.88920e-217
418.000     4.55788e-220
419.000     2.49120e-223
420.000     1.28817e-226
421.000     6.30168e-230
422.000     2.91646e-233
423.000     1.27695e-236
424.000     5.28943e-240
425.000     2.07282e-243
426.000     7.68478e-247
427.000     2.69537e-250
428.000     8.94385e-254
429.000     2.80768e-257
430.000     8.33851e-261
431.000     2.34286e-264
432.000     6.22762e-268
433.000     1.56609e-271
434.000     3.72586e-275
435.000     8.38601e-279
436.000     1.78567e-282
437.000     3.59721e-286
438.000     6.85562e-290
439.000     1.23608e-293
440.000     2.10845e-297
441.000     3.40249e-301
442.000     5.19456e-305
443.000      0.00000e+00
444.000      0.00000e+00
445.000      0.00000e+00
446.000      0.00000e+00
447.000      0.00000e+00
448.000      0.00000e+00
449.000      0.00000e+00
450.000      0.00000e+00
451.000      0.00000e+00
452.000      0.00000e+00
453.000      0.00000e+00
454.000      0.00000e+00
455.000      0.00000e+00
456.000      0.00000e+00
457.000      0.00000e+00
458.000      0.00000e+00
459.000      0.00000e+00
460.000      0.00000e+00
461.000      0.00000e+00
462.000      0.00000e+00
463.000      0.00000e+00
464.000      0.00000e+00
465.000      0.00000e+00
466.000      0.00000e+00
467.000      0.00000e+00
468.000      0.00000e+00
469.000      0.00000e+00
470.000      0.00000e+00
471.000      0.00000e+00
472.000      0.00000e+00
473.000      0.00000e+00
474.000      0.00000e+00
475.000      0.00000e+00
476.000      0.00000e+00
477.000      0.00000e+00
478.000      0.00000e+00
479.000      0.00000e+00
480.000      0.00000e+00
481.000      0.00000e+00
482.000      0.00000e+00
483.000      0.00000e+00
484.000      0.00000e+00
485.000      0.00000e+00
486.000      0.00000e+00
487.000      0.00000e+00
488.000      0.00000e+00
489.000      0.00000e+00
490.000      0.00000e+00
491.000      0.00000e+00
492.000      0.00000e+00
493.000      0.00000e+00
494.000      0.00000e+00
495.000      0.00000e+00
496.000      0.00000e+00
497.000      0.00000e+00
498.000      0.00000e+00
499.000      0.00000e+00
500.000      0.00000e+00
501.000      0.00000e+00
502.000      0.00000e+00
503.000      0.00000e+00
504.000      0.00000e+00
505.000      0.00000e+00
506.000      0.00000e+00
507.000      0.00000e+00
508.000      0.00000e+00
509.000      0.00000e+00
510.000      0.00000e+00
511.000      0.00000e+00
512.000      0.00000e+00
513.000      0.00000e+00
514.000      0.00000e+00
515.000      0.00000e+00
516.000      0.00000e+00
517.000      0.00000e+00
518.000      0.00000e+00
519.000      0.00000e+00
520.000      0.00000e+00
521.000      0.00000e+00
522.000      0.00000e+00
523.000      0.00000e+00
524.000      0.00000e+00
525.000      0.00000e+00
526.000      0.00000e+00
527.000      0.00000e+00
528.000      0.00000e+00
529.000      0.00000e+00
530.000      0.00000e+00
531.000      0.00000e+00
532.000      0.00000e+00
533.000      0.00000e+00
534.000      0.00000e+00
535.000      0.00000e+00
536.000      0.00000e+00
537.000      0.00000e+00
538.000      0.00000e+00
539.000      0.00000e+00
540.000      0.00000e+00
541.000      0.00000e+00
542.000      0.00000e+00
543.000      0.00000e+00
544.000      0.00000e+00
545.000      0.00000e+00
546.000      0.00000e+00
547.000      0.00000e+00
548.000      0.00000e+00
549.000      0.00000e+00
550.000      0.00000e+00
551.000      0.00000e+00
552.000      0.00000e+00
553.000      0.00000e+00
554.000      0.00000e+00
555.000      0.00000e+00
556.000      0.00000e+00
557.000      0.00000e+00
558.000      0.00000e+00
559.000      0.00000e+00
560.000      0.00000e+00
561.000      0.00000e+00
562.000      0.00000e+00
563.000      0.00000e+00
564.000      0.00000e+00
565.000      0.00000e+00
566.000      0.00000e+00
567.000      0.00000e+00
568.000      0.00000e+00
569.000      0.00000e+00
570.000      0.00000e+00
571.000      0.00000e+00
572.000      0.00000e+00
573.000      0.00000e+00
574.000      0.00000e+00
575.000      0.00000e+00
576.000      0.00000e+00
577.000      0.00000e+00
578.000      0.00000e+00
579.000      0.00000e+00
580.000      0.00000e+00
581.000      0.00000e+00
582.000      0.00000e+00
583.000      0.00000e+00
584.000      0.00000e+00
585.000      0.00000e+00
586.000      0.00000e+00
587.000      0.00000e+00
588.000      0.00000e+00
589.000      0.00000e+00
590.000      0.00000e+00
591.000      0.00000e+00
592.000      0.00000e+00
593.000      0.00000e+00
594.000      0.00000e+00
595.000      0.00000e+00
596.000      0.00000e+00
597.000      0.00000e+00
598.000      0.00000e+00
599.000      0.00000e+00
600.000      0.00000e+00
601.000      0.00000e+00
602.000      0.00000e+00
603.000      0.00000e+00
604.000      0.00000e+00
605.000      0.00000e+00
606.000      0.00000e+00
607.000      0.00000e+00
608.000      0.00000e+00
609.000      0.00000e+00
610.000      0.00000e+00
611.000      0.00000e+00
612.000      0.00000e+00
613.000      0.00000e+00
614.000      0.00000e+00
615.000      0.00000e+00
616.000      0.00000e+00
617.000      0.00000e+00
618.000      0.00000e+00
619.000      0.00000e+00
620.000      0.00000e+00
621.000      0.00000e+00
622.000      0.00000e+00
623.000      0.00000e+00
624.000      0.00000e+00
625.000      0.00000e+00
626.000      0.00000e+00
627.000      0.00000e+00
628.000      0.00000e+00
629.000      0.00000e+00
630.000      0.00000e+00
631.000      0.00000e+00
632.000      0.00000e+00
633.000      0.00000e+00
634.000      0.00000e+00
635.000      0.00000e+00
636.000      0.00000e+00
637.000      0.00000e+00
638.000      0.00000e+00
639.000      0.00000e+00
640.000      0.00000e+00
641.000      0.00000e+00
642.000      0.00000e+00
643.000      0.00000e+00
644.000      0.00000e+00
645.000      0.00000e+00
646.000      0.00000e+00
647.000      0.00000e+00
648.000      0.00000e+00
649.000      0.00000e+00
650.000      0.00000e+00
651.000      0.00000e+00
652.000      0.00000e+00
653.000      0.00000e+00
654.000      0.00000e+00
655.000      0.00000e+00
656.000      0.00000e+00
657.000      0.00000e+00
658.000      0.00000e+00
659.000      0.00000e+00
660.000      0.00000e+00
661.000      0.00000e+00
662.000      0.00000e+00
663.000      0.00000e+00
664.000      0.00000e+00
665.000      0.00000e+00
666.000      0.00000e+00
667.000      0.00000e+00
668.000      0.00000e+00
669.000      0.00000e+00
670.000      0.00000e+00
671.000      0.00000e+00
672.000      0.00000e+00
673.000      0.00000e+00
674.000      0.00000e+00
675.000      0.00000e+00
676.000      0.00000e+00
677.000      0.00000e+00
678.000      0.00000e+00
679.000      0.00000e+00
680.000      0.00000e+00
681.000      0.00000e+00
682.000      0.00000e+00
683.000      0.00000e+00
684.000      0.00000e+00
685.000      0.00000e+00
686.000      0.00000e+00
687.000      0.00000e+00
688.000      0.00000e+00
689.000      0.00000e+00
690.000      0.00000e+00
691.000      0.00000e+00
692.000      0.00000e+00
693.000      0.00000e+00
694.000      0.00000e+00
695.000      0.00000e+00
696.000      0.00000e+00
697.000      0.00000e+00
698.000      0.00000e+00
699.000      0.00000e+00
700.000      0.00000e+00
701.000      0.00000e+00
702.000      0.00000e+00
703.000      0.00000e+00
704.000      0.00000e+00
705.000      0.00000e+00
706.000      0.00000e+00
707.000      0.00000e+00
708.000      0.00000e+00
709.000      0.00000e+00
710.000      0.00000e+00
711.000      0.00000e+00
712.000      0.00000e+00
713.000      0.00000e+00
714.000      0.00000e+00
715.000      0.00000e+00
716.000      0.00000e+00
717.000      0.00000e+00
718.000      0.00000e+00
719.000      0.00000e+00
720.000      0.00000e+00
721.000      0.00000e+00
722.000      0.00000e+00
723.000      0.00000e+00
724.000      0.00000e+00
725.000      0.00000e+00
726.000      0.00000e+00
727.000      0.00000e+00
728.000      0.00000e+00
729.000      0.00000e+00
730.000      0.00000e+00
731.000      0.00000e+00
732.000      0.00000e+00
733.000      0.00000e+00
734.000      0.00000e+00
735.000      0.00000e+00
736.000      0.00000e+00
737.000      0.00000e+00
738.000      0.00000e+00
739.000      0.00000e+00
740.000      0.00000e+00
741.000      0.00000e+00
742.000      0.00000e+00
743.000      0.00000e+00
744.000      0.00000e+00
745.000      0.00000e+00
746.000      0.00000e+00
747.000      0.00000e+00
748.000      0.00000e+00
749.000      0.00000e+00
750.000      0.00000e+00
751.000      0.00000e+00
752.000      0.00000e+00
753.000      0.00000e+00
754.000      0.00000e+00
755.000      0.00000e+00
756.000      0.00000e+00
757.000      0.00000e+00
758.000      0.00000e+00
759.000      0.00000e+00
760.000      0.00000e+00
761.000      0.00000e+00
762.000      0.00000e+00
763.000      0.00000e+00
764.000      0.00000e+00
765.000      0.00000e+00
766.000      0.00000e+00
767.000      0.00000e+00
768.000      0.00000e+00
769.000      0.00000e+00
770.000      0.00000e+00
771.000      0.00000e+00
772.000      0.00000e+00
773.000      0.00000e+00
774.000      0.00000e+00
775.000      0.00000e+00
776.000      0.00000e+00
777.000      0.00000e+00
778.000      0.00000e+00
779.000      0.00000e+00
780.000      0.00000e+00
781.000      0.00000e+00
782.000      0.00000e+00
783.000      0.00000e+00
784.000      0.00000e+00
785.000      0.00000e+00
786.000      0.00000e+00
787.000      0.00000e+00
788.000      0.00000e+00
789.000      0.00000e+00
790.000      0.00000e+00
791.000      0.00000e+00
792.000      0.00000e+00
793.000      0.00000e+00
794.000      0.00000e+00
795.000      0.00000e+00
796.000      0.00000e+00
797.000      0.00000e+00
798.000      0.00000e+00
799.000      0.00000e+00
800.000      0.00000e+00
801.000      0.00000e+00
